# log E [eV]	Xmax [g cm^-2]
18.45 746.51524
18.55 750.02411
18.65 754.54319
18.75 759.98209
18.85 765.80258
18.95 769.20062
19.05 774.06429
19.15 780.10422
19.25 782.92836
19.35 788.91204
19.45 796.33214
19.55 806.46605
19.65 813.41387
19.75 820.89551
19.85 811.60476
19.95 814.86211