#1st column is energy
#2nd column is flux in E^2\Phi in GeV cm^-2 s^-2 sr^-1  for pi/mu cooling scenario
#3nd column is flux in E^2\Phi in GeV cm^-2 s^-2 sr^-1  for nu attenuation scenario
1.00000e+03 9.70205e-08 1.54305e-07
1.05956e+03 9.70103e-08 1.53865e-07
1.12267e+03 9.70005e-08 1.53425e-07
1.18953e+03 9.69891e-08 1.52981e-07
1.26038e+03 9.69779e-08 1.52497e-07
1.33545e+03 9.69654e-08 1.51970e-07
1.41499e+03 9.69528e-08 1.51444e-07
1.49927e+03 9.69402e-08 1.50915e-07
1.58857e+03 9.69262e-08 1.50333e-07
1.68318e+03 9.69098e-08 1.49707e-07
1.78343e+03 9.68940e-08 1.49085e-07
1.88965e+03 9.68776e-08 1.48457e-07
2.00220e+03 9.68598e-08 1.47764e-07
2.12145e+03 9.68400e-08 1.47030e-07
2.24781e+03 9.68209e-08 1.46307e-07
2.38169e+03 9.68010e-08 1.45571e-07
2.52354e+03 9.67779e-08 1.44760e-07
2.67384e+03 9.67534e-08 1.43913e-07
2.83310e+03 9.67297e-08 1.43082e-07
3.00184e+03 9.67046e-08 1.42231e-07
3.18063e+03 9.66761e-08 1.41295e-07
3.37006e+03 9.66457e-08 1.40331e-07
3.57079e+03 9.66166e-08 1.39392e-07
3.78346e+03 9.65850e-08 1.38424e-07
4.00881e+03 9.65499e-08 1.37362e-07
4.24757e+03 9.65129e-08 1.36284e-07
4.50056e+03 9.64767e-08 1.35239e-07
4.76861e+03 9.64378e-08 1.34156e-07
5.05263e+03 9.63938e-08 1.32968e-07
5.35357e+03 9.63490e-08 1.31785e-07
5.67243e+03 9.63046e-08 1.30645e-07
6.01028e+03 9.62569e-08 1.29452e-07
6.36825e+03 9.62024e-08 1.28150e-07
6.74754e+03 9.61473e-08 1.26871e-07
7.14943e+03 9.60937e-08 1.25648e-07
7.57525e+03 9.60349e-08 1.24357e-07
8.02643e+03 9.59678e-08 1.22952e-07
8.50449e+03 9.59014e-08 1.21593e-07
9.01102e+03 9.58370e-08 1.20307e-07
9.54772e+03 9.57647e-08 1.18925e-07
1.01164e+04 9.56829e-08 1.17430e-07
1.07189e+04 9.56022e-08 1.16009e-07
1.13573e+04 9.55243e-08 1.14665e-07
1.20338e+04 9.54368e-08 1.13208e-07
1.27505e+04 9.53373e-08 1.11653e-07
1.35099e+04 9.52413e-08 1.10191e-07
1.43146e+04 9.51489e-08 1.08802e-07
1.51672e+04 9.50417e-08 1.07280e-07
1.60705e+04 9.49224e-08 1.05681e-07
1.70277e+04 9.48097e-08 1.04191e-07
1.80419e+04 9.46991e-08 1.02764e-07
1.91164e+04 9.45687e-08 1.01187e-07
2.02550e+04 9.44292e-08 9.95619e-08
2.14614e+04 9.42976e-08 9.80542e-08
2.27397e+04 9.41675e-08 9.65938e-08
2.40940e+04 9.40122e-08 9.49630e-08
2.55291e+04 9.38500e-08 9.33114e-08
2.70496e+04 9.36994e-08 9.17897e-08
2.86607e+04 9.35485e-08 9.02906e-08
3.03677e+04 9.33667e-08 8.86072e-08
3.21764e+04 9.31791e-08 8.69222e-08
3.40929e+04 9.30094e-08 8.53790e-08
3.61234e+04 9.28337e-08 8.38247e-08
3.82749e+04 9.26183e-08 8.20668e-08
4.05546e+04 9.24024e-08 8.03434e-08
4.29700e+04 9.22077e-08 7.87644e-08
4.55294e+04 9.19990e-08 7.71355e-08
4.82411e+04 9.17371e-08 7.52902e-08
5.11143e+04 9.14784e-08 7.35071e-08
5.41587e+04 9.12455e-08 7.18761e-08
5.73844e+04 9.09814e-08 7.01512e-08
6.08022e+04 9.06502e-08 6.82130e-08
6.44236e+04 9.03247e-08 6.63627e-08
6.82607e+04 9.00291e-08 6.46757e-08
7.23263e+04 8.96774e-08 6.28524e-08
7.66341e+04 8.92416e-08 6.08311e-08
8.11984e+04 8.88178e-08 5.89352e-08
8.60346e+04 8.84262e-08 5.72122e-08
9.11589e+04 8.79455e-08 5.53167e-08
9.65883e+04 8.73606e-08 5.32439e-08
1.02341e+05 8.67979e-08 5.13411e-08
1.08437e+05 8.62651e-08 4.96102e-08
1.14895e+05 8.56064e-08 4.76917e-08
1.21738e+05 8.48389e-08 4.56558e-08
1.28989e+05 8.40970e-08 4.38062e-08
1.36672e+05 8.33716e-08 4.21108e-08
1.44812e+05 8.24909e-08 4.02377e-08
1.53437e+05 8.15053e-08 3.83115e-08
1.62576e+05 8.05492e-08 3.65806e-08
1.72259e+05 7.95947e-08 3.49834e-08
1.82518e+05 7.84629e-08 3.32293e-08
1.93389e+05 7.72357e-08 3.14695e-08
2.04907e+05 7.60485e-08 2.99113e-08
2.17112e+05 7.48496e-08 2.84626e-08
2.30043e+05 7.34639e-08 2.68812e-08
2.43744e+05 7.20080e-08 2.53393e-08
2.58262e+05 7.06045e-08 2.39889e-08
2.73644e+05 6.91777e-08 2.27198e-08
2.89942e+05 6.75683e-08 2.13418e-08
3.07211e+05 6.59235e-08 2.00334e-08
3.25509e+05 6.43497e-08 1.89023e-08
3.44896e+05 6.27468e-08 1.78254e-08
3.65438e+05 6.09790e-08 1.66616e-08
3.87204e+05 5.92150e-08 1.55837e-08
4.10266e+05 5.75443e-08 1.46658e-08
4.34701e+05 5.58407e-08 1.37757e-08
4.60592e+05 5.39978e-08 1.28172e-08
4.88025e+05 5.21986e-08 1.19521e-08
5.17092e+05 5.05138e-08 1.12271e-08
5.47890e+05 4.87925e-08 1.05069e-08
5.80523e+05 4.69637e-08 9.73610e-09
6.15099e+05 4.52133e-08 9.05809e-09
6.51734e+05 4.35916e-08 8.49873e-09
6.90551e+05 4.19282e-08 7.92568e-09
7.31681e+05 4.01900e-08 7.31804e-09
7.75260e+05 3.85559e-08 6.79704e-09
8.21434e+05 3.70579e-08 6.37421e-09
8.70359e+05 3.55109e-08 5.92420e-09
9.22198e+05 3.39178e-08 5.45216e-09
9.77124e+05 3.24458e-08 5.05858e-09
1.03532e+06 3.11053e-08 4.74168e-09
1.09699e+06 2.97126e-08 4.39209e-09
1.16232e+06 2.83013e-08 4.03255e-09
1.23155e+06 2.70153e-08 3.73950e-09
1.30490e+06 2.58432e-08 3.50122e-09
1.38262e+06 2.46245e-08 3.23318e-09
1.46497e+06 2.34115e-08 2.96478e-09
1.55223e+06 2.23173e-08 2.74956e-09
1.64468e+06 2.13159e-08 2.57113e-09
1.74263e+06 2.02725e-08 2.36693e-09
1.84642e+06 1.92518e-08 2.16844e-09
1.95640e+06 1.83388e-08 2.01123e-09
2.07292e+06 1.74990e-08 1.87790e-09
2.19639e+06 1.66222e-08 1.72330e-09
2.32720e+06 1.57778e-08 1.57743e-09
2.46581e+06 1.50305e-08 1.46387e-09
2.61268e+06 1.43369e-08 1.36418e-09
2.76829e+06 1.36097e-08 1.24744e-09
2.93317e+06 1.29204e-08 1.14051e-09
3.10787e+06 1.23168e-08 1.05853e-09
3.29297e+06 1.17500e-08 9.83693e-10
3.48910e+06 1.11527e-08 8.95534e-10
3.69691e+06 1.05961e-08 8.17402e-10
3.91710e+06 1.01147e-08 7.58342e-10
4.15040e+06 9.65374e-09 7.01504e-10
4.39760e+06 9.16655e-09 6.35132e-10
4.65953e+06 8.72068e-09 5.78179e-10
4.93705e+06 8.33979e-09 5.35551e-10
5.23110e+06 7.96595e-09 4.92240e-10
5.54266e+06 7.56882e-09 4.42383e-10
5.87279e+06 7.21218e-09 4.00950e-10
6.22257e+06 6.91215e-09 3.70292e-10
6.59319e+06 6.60727e-09 3.37356e-10
6.98588e+06 6.28216e-09 3.00395e-10
7.40196e+06 5.99597e-09 2.70686e-10
7.84282e+06 5.75856e-09 2.48884e-10
8.30994e+06 5.50621e-09 2.24230e-10
8.80488e+06 5.23649e-09 1.97483e-10
9.32930e+06 5.00339e-09 1.76659e-10
9.88496e+06 4.81136e-09 1.61422e-10
1.04737e+07 4.59661e-09 1.43495e-10
1.10975e+07 4.36855e-09 1.24909e-10
1.17585e+07 4.17407e-09 1.10855e-10
1.24588e+07 4.00983e-09 1.00240e-10
1.32009e+07 3.82199e-09 8.78628e-11
1.39871e+07 3.62593e-09 7.56900e-11
1.48202e+07 3.45840e-09 6.66005e-11
1.57029e+07 3.31193e-09 5.94998e-11
1.66382e+07 3.14284e-09 5.13563e-11
1.76291e+07 2.97044e-09 4.37529e-11
1.86791e+07 2.82242e-09 3.81445e-11
1.97917e+07 2.68889e-09 3.36427e-11
2.09705e+07 2.53518e-09 2.85663e-11
2.22195e+07 2.38277e-09 2.40599e-11
2.35429e+07 2.25158e-09 2.07813e-11
2.49451e+07 2.12962e-09 1.80618e-11
2.64308e+07 1.99184e-09 1.50777e-11
2.80050e+07 1.85905e-09 1.25502e-11
2.96730e+07 1.74467e-09 1.07331e-11
3.14404e+07 1.63613e-09 9.18073e-12
3.33129e+07 1.51624e-09 7.52378e-12
3.52971e+07 1.40394e-09 6.18377e-12
3.73994e+07 1.30772e-09 5.23607e-12
3.96269e+07 1.21487e-09 4.39962e-12
4.19871e+07 1.11500e-09 3.53655e-12
4.44878e+07 1.02379e-09 2.86720e-12
4.71375e+07 9.46029e-10 2.39937e-12
4.99451e+07 8.70089e-10 1.97398e-12
5.29198e+07 7.90432e-10 1.55093e-12
5.60717e+07 7.19396e-10 1.23633e-12
5.94113e+07 6.59211e-10 1.01876e-12
6.29499e+07 5.99677e-10 8.14935e-13
6.66992e+07 5.38745e-10 6.21097e-13
7.06718e+07 4.85285e-10 4.81617e-13
7.48810e+07 4.40038e-10 3.85296e-13
7.93410e+07 3.94493e-10 2.92896e-13
8.40665e+07 3.48518e-10 2.09266e-13
8.90735e+07 3.07911e-10 1.49915e-13
9.43788e+07 2.71575e-10 1.05968e-13
1.00000e+08 2.30741e-10 6.19376e-14
